	"LD1"	"LD2"	"LD3"
"1"	0.00689640098243714	-0.0346738790523707	0.00672625248531888
"2"	0.00702092482185269	-0.0339014961354442	0.00616046774549471
"3"	0.00589795000662005	-0.0337930504276094	0.0077958669116883
"4"	0.00483429353870752	-0.0361251538892787	0.00856732539003234
"5"	0.00377242622891551	-0.0366464461631305	0.00960585427117629
"6"	0.00379985253228136	-0.0364662993758953	0.0109170617625758
"7"	0.00372566368499141	-0.0337148666569437	0.0131123319786914
"8"	0.00545918257579529	-0.0317869813296561	0.0126241669750758
"9"	0.00590747163134165	-0.0277733544446937	0.0135232896380304
"10"	0.00657764194289865	-0.0220797333295312	0.0132070123047449
"11"	0.00541442176309754	-0.0183508189546416	0.0131529196879316
"12"	0.00458135462567419	-0.0178209605212909	0.012748054607577
"13"	0.00335520504887023	-0.0129719259651586	0.0136462363351162
"14"	0.00155020857780991	-0.0121872030675958	0.0126949723758146
"15"	-1.61837388813929E-4	-0.00992392737940031	0.0134089599158391
"16"	-0.00176899701576079	-0.0095256752752079	0.0125037626300367
"17"	-0.0036642588050084	-0.00992312537362362	0.0107317304374305
"18"	-0.00511706630683477	-0.00917369583885118	0.00921187277371469
"19"	-0.00509012118477736	-0.00646943380142037	0.00764950688061721
"20"	-0.00499470977330699	-0.00787607451161417	0.0055965313885446
"21"	-0.00534004260576533	-0.00546656685959766	0.00438288649293359
"22"	-0.00548600902122005	-0.0047713102390451	0.00368738001443311
"23"	-0.00518464924240505	-0.00676304883574996	8.48829201021424E-4
"24"	-0.00541986931397548	-0.00772380706756526	-8.87726503635145E-4
"25"	-0.00483720832153742	-0.00806421552229674	-0.00166867129494137
"26"	-0.00328114949669228	-0.00989621576529514	-0.00470555620574119
"27"	-0.00138202199848935	-0.00868740970597662	-0.00628181878971697
"28"	1.6237645533232E-5	-0.00971482500379472	-0.00856358621158549
"29"	0.0037048648318408	-0.00917454076031023	-0.0119332419701668
"30"	0.00585929402021979	-0.00895608571052828	-0.0161087738745007
"31"	0.00820584145219417	-0.0076908828502218	-0.0185361298779309
"32"	0.00874399683262596	-0.00707941224875683	-0.022337114992792
"33"	0.00950210342689611	-0.00650096325318847	-0.0244907768158792
"34"	0.00857889513896975	-0.00650362655532944	-0.0245352051101542
"35"	0.00816332868130648	-0.00434864450358915	-0.0275150166059901
"36"	0.00696543919373763	-0.00546947082367369	-0.0292360702624763
"37"	0.00841166307711113	-0.00346337445796932	-0.031227380284681
"38"	0.00834332834932951	-0.00189443764439354	-0.0322217320338634
"39"	0.00873592449654038	6.36960446893904E-4	-0.034114628907883
"40"	0.00899636623982692	7.83397663271288E-4	-0.0318965829495186
"41"	0.00899182863468086	0.00247541847503116	-0.0310494523949278
"42"	0.00822448275448837	0.00118588087763115	-0.0300205701143583
"43"	0.00753647367137181	0.00304460865609818	-0.0290697598383535
"44"	0.00712553632290075	-7.44682676154708E-4	-0.0290488334308896
"45"	0.0078571076435615	-7.00411155459007E-4	-0.0303673276708261
"46"	0.00984325631381246	-2.40521378251653E-4	-0.0307343022688436
"47"	0.0104573409468839	3.66883688031603E-4	-0.0289539463854919
"48"	0.0127366169894086	-2.3411661767983E-4	-0.0276758993863716
"49"	0.0147056284803362	0.00485806559379101	-0.0269239544995911
"50"	0.0138369198526139	0.00556129389215615	-0.0246033126426258
"51"	0.0118810711370261	0.00535822166388565	-0.0230310691473304
"52"	0.011476442371723	0.00614506718927911	-0.0228576035169898
"53"	0.00996151563849407	0.00650907416066486	-0.0217317805050787
"54"	0.00611851700405005	0.00569819922709067	-0.0174963010182129
"55"	0.00432742247436973	0.00595586418354209	-0.01484807380711
"56"	0.0019497751004859	0.00545534810447517	-0.0108640306729983
"57"	-5.62169142122644E-4	0.00428044501075654	-0.00793568061201357
"58"	-0.00285674553970828	0.00291553762553081	-0.00491091814547272
"59"	-0.00364199371515545	6.15789008039008E-4	-0.0042668531028436
"60"	-0.00495910059864604	-0.00204499091782638	-0.00401543977464634
"61"	-0.0056808985304217	-0.00241068556907503	-0.00381517798840963
"62"	-0.00630437824599757	-0.00245326808036337	-0.00360753015188153
"63"	-0.00747471582974937	-0.00328588663156869	-0.00350907256312246
"64"	-0.00692786254094542	-0.00406101252411164	-0.0029395046271149
"65"	-0.00478628453695549	2.28704953241639E-4	-0.00250874774896751
"66"	-0.0034477090080671	-4.9803386908709E-4	-0.00316487962601338
"67"	-0.0022097993281245	-3.34891757527816E-4	-0.00370596978910331
"68"	3.76241475661499E-4	0.00278030670883644	-0.00562488095810247
"69"	3.32052009852966E-4	0.00517056665785417	-0.00641762938038076
"70"	-0.00125874865146942	0.00212389081479252	-0.00565648297964524
"71"	-0.00293147308923387	0.00322469797261795	-0.00456811875862818
"72"	-0.00347292715316661	0.00318370548180706	-0.00564548505628337
"73"	-0.00447060286773509	0.00186429523556203	-0.00697433455384542
"74"	-0.00470200018116811	0.0013498064772933	-0.00884561473462937
"75"	-0.00554980932311253	0.0017671651208268	-0.0115018894972269
"76"	-0.00464262033498275	0.00181615052684724	-0.0151952786498888
"77"	-0.00508914901448987	0.00531075822336467	-0.0160366932769842
"78"	-0.00618119636421815	0.00553019945171693	-0.0169188137290502
"79"	-0.00716085160746258	0.0057573609389799	-0.0174510035252927
"80"	-0.0070276337816855	0.00612158840663438	-0.018255322475002
"81"	-0.00858310234415035	0.00875276672593329	-0.018238087313795
"82"	-0.00979348750339782	0.00814098071470737	-0.0169612861282324
"83"	-0.0111852352648033	0.00856036308145713	-0.0178093760153654
"84"	-0.0120971645999456	0.00789644834180255	-0.016828343661402
"85"	-0.0142954897268434	0.00900844187042028	-0.0140317707351614
"86"	-0.0157643449988584	0.00781255499038036	-0.0109571838604423
"87"	-0.0174316485624928	0.00804579017725104	-0.00760800087645995
"88"	-0.0201755354588112	0.012253329734469	-0.00214769089972163
"89"	-0.0229945499548224	0.0162353344212866	0.00138974405892482
"90"	-0.025438862666605	0.0182726069037944	0.00291210210712176
"91"	-0.0285845414813563	0.0229386805086027	0.00457419725012476
"92"	-0.0317409095456787	0.0252402345760517	0.00533978383852035
"93"	-0.0333024967398912	0.0263700944613867	0.00565057131123031
"94"	-0.0350436931555652	0.0311857276386908	0.00469768351351679
"95"	-0.0361604133886405	0.0330619739314958	0.00587283990957449
"96"	-0.0368049326731481	0.0342420696360825	0.00555405268777677
"97"	-0.0361069786106417	0.0366111821778132	0.00477652465748443
"98"	-0.0356013581951279	0.0385559177334037	0.00460240420781078
"99"	-0.0340431343647395	0.038378750476753	0.00450627097894288
"100"	-0.0333584340194792	0.0419876410945196	0.0039260264469183
"101"	-0.0298967512380664	0.0449554409060647	0.00308378541764161
"102"	-0.0277922466157019	0.0451558799198458	0.00325683298461964
"103"	-0.0258027594264633	0.0454537211788649	0.00330297979792476
"104"	-0.0242500794095212	0.04472661746738	0.002451656979168
"105"	-0.0206255395888283	0.0437468655103093	0.00167234081582171
"106"	-0.0186661343750441	0.0421373631467103	0.00153960873896933
"107"	-0.0175224746475015	0.0407613508817124	1.27582093093793E-5
"108"	-0.0159332892581552	0.0390401615395345	-0.00102784598498487
"109"	-0.0144026746565702	0.0387471135167767	-3.63684907145913E-4
"110"	-0.0125765755572053	0.0362121156307662	-8.93795005635856E-4
"111"	-0.0126294238255335	0.0317787528116703	-3.49589722097377E-4
"112"	-0.0102090850550328	0.0307879668981128	-7.42574987342918E-4
"113"	-0.00882613997443507	0.0266598171033055	-1.58218244418879E-4
"114"	-0.00628624826034467	0.0209515352282132	-0.00220251316175066
"115"	-0.00527463476164901	0.0169122237094762	-0.00455939056924773
"116"	-0.00271966659699856	0.015970027757696	-0.00649415252675008
"117"	-0.00193923746740798	0.011790800642219	-0.00760361261337513
"118"	3.00045643327087E-4	0.0100571278785614	-0.00938826204889435
"119"	-7.19604745587017E-4	0.00828548678051346	-0.00691698221234045
"120"	-4.07263817863038E-4	0.0094722638698908	-0.00494063273981782
"121"	8.95704509484731E-5	0.00655524690978415	-0.00368978893460869
"122"	-0.00104952977375433	0.00595595701761041	-0.0022138669185469
"123"	-0.00110327441359599	0.00751305872855236	-0.00193787803376473
"124"	0.00115897663945259	0.00968650966538483	-0.00277215613662574
"125"	0.00357946177664476	0.00998822856373556	-0.00228400779236735
"126"	0.0057177649561187	0.0124668355454282	-0.0020570262530233
"127"	0.0107654256198232	0.0150991181502334	-0.00224353565588524
"128"	0.0155416353224652	0.0126408187237498	-0.00188328171661537
"129"	0.0201180348531133	0.0113473559502599	-0.00232633281852483
"130"	0.023530627023556	0.0101550586495113	-0.00377461872170316
"131"	0.0260823408818368	0.00677194655355599	-0.00458648379143291
"132"	0.0277896194029486	0.00403267765975235	-0.00658072373235783
"133"	0.0287304899114161	0.00501417872968502	-0.00762043833030627
"134"	0.0284681137655266	0.00182654181218232	-0.00757181238724261
"135"	0.0277499159318136	-0.00200402573318627	-0.00702489372609615
"136"	0.0273455446766183	-0.00371275017127118	-0.0086532312922068
"137"	0.0262933619510026	-0.00853779493838716	-0.00782289460999462
"138"	0.0234138442062454	-0.0141939920772357	-0.00839426801114434
"139"	0.0213000753348356	-0.0155325869276854	-0.00970824374596846
"140"	0.0215291024237794	-0.0194837532170553	-0.0118853727176413
"141"	0.0203234328734924	-0.0211042849565804	-0.011288707288472
"142"	0.0190636091694873	-0.0218453951857845	-0.0125265212288002
"143"	0.0190658443369197	-0.021309792839887	-0.013966747816215
"144"	0.0183634745290003	-0.0220864343112239	-0.0154298008809336
"145"	0.0142218297648131	-0.0221796328444634	-0.0151654353512182
"146"	0.0119651773895723	-0.0222604279269688	-0.0175497437101712
"147"	0.00932231961625688	-0.0221910433378681	-0.0177784060386178
"148"	0.0072569515822796	-0.0201393750976134	-0.0169278736893735
"149"	0.00454593387293353	-0.0195405045392612	-0.0173462358021532
"150"	0.00265766117526967	-0.017641700926278	-0.0165097643340539
"151"	0.00117564467626623	-0.0181853674265779	-0.0149589445249936
"152"	-8.80349609913895E-4	-0.0180961345265353	-0.0133973005783046
"153"	-0.00337842034426368	-0.0194165766653093	-0.012966637548293
"154"	-0.0054334068271188	-0.0204017715673216	-0.011534859985788
"155"	-0.00532402826824261	-0.0209875021264748	-0.0127422232927814
"156"	-0.0064733014794321	-0.0221942072155588	-0.0121006646999093
"157"	-0.00635974688444988	-0.0217342715570154	-0.0123243453700893
"158"	-0.00685129578683929	-0.0232313647162012	-0.0118028500583477
"159"	-0.00725440283413674	-0.0249132490106502	-0.0103771404951882
"160"	-0.00882288241100493	-0.027207787680995	-0.00738997313251835
"161"	-0.0105415840214139	-0.0296653857785767	-0.00431819749167522
"162"	-0.0132759269285753	-0.0311896169036103	-9.62459565194984E-4
"163"	-0.0167598402673059	-0.0328157892817578	0.00358355751451709
"164"	-0.0187327606683417	-0.0328356421222866	0.00610848678899045
"165"	-0.0207550516712574	-0.0335295573575958	0.00634095458339523
"166"	-0.0202025645964743	-0.0327668805263159	0.00437061257580074
"167"	-0.0176026539541991	-0.0322532496329798	0.00244649026417363
"168"	-0.0143619440111355	-0.0292258266460785	-3.48027552256011E-4
"169"	-0.0115597308505346	-0.027088325097261	-0.0044474561506068
"170"	-0.00795091608873129	-0.0235825691645735	-0.00725703147678626
"171"	-0.00630381167319922	-0.0191656398891606	-0.00829086608249726
"172"	-0.00618698967759561	-0.0158663887427078	-0.0095258770611984
"173"	-0.00567473474754242	-0.0172912341492337	-0.011382358822214
"174"	-0.00462345797950725	-0.0154472848024789	-0.0110205244578847
"175"	-0.00495937373441008	-0.0137160542998104	-0.0098479283667331
"176"	-0.00373792332413985	-0.0125018503288513	-0.00979491408703943
"177"	-0.00230092790338404	-0.011347079360298	-0.010774299696057
"178"	-9.46663632880696E-5	-0.00483619014232036	-0.0100053611736348
"179"	0.00100657137945735	-0.00452895138091883	-0.00926627279668132
"180"	0.00413808030097959	3.54404995952726E-6	-0.0104672434505812
"181"	0.00619140053040736	0.00194690346464279	-0.00978823077144794
"182"	0.00837555792331843	0.0038669994660135	-0.0094286071436944
"183"	0.0102207812810601	0.00384770186397926	-0.0091486719666342
"184"	0.0123269466541824	0.00756673396007917	-0.00839294262071516
"185"	0.0138523319235359	0.0076317755403582	-0.00651266568099051
"186"	0.0153138020698582	0.00932367671369231	-0.00554361182844482
"187"	0.017740665949764	0.00864176083146374	-0.00539945153946916
"188"	0.0190273255495609	0.00753824573025389	-0.00645538456815956
"189"	0.0191604492517233	0.00672068211251807	-0.00687666683622037
"190"	0.0185539088181007	0.00473964128941241	-0.00712664362759367
"191"	0.0175992654780961	0.00213199660126132	-0.00916370486684937
"192"	0.0164085143231406	0.00139571903828201	-0.0091605187476536
"193"	0.016186313571959	-0.00124043639254263	-0.00881064061632739
"194"	0.0168399937904763	-0.00290595638436279	-0.00819815179840284
"195"	0.0168928854231847	-0.00452739221581646	-0.00889499147284756
"196"	0.0170566643619567	-0.00344197896165284	-0.00700647829782436
"197"	0.0160880232325583	-0.00457736918995891	-0.00416722540935143
"198"	0.0153554173733897	-0.00339115896271425	-0.00148244404718649
"199"	0.0158007983654249	-0.00270577083668047	6.96191537811169E-5
"200"	0.0165314047277717	-0.00309474929378967	0.0027547224147619
"201"	0.0166254668187942	-0.00654289369464608	0.00447279566721237
"202"	0.0180442992687331	-0.00509472832015202	0.00467526555315789
"203"	0.0188439795387889	-0.00512118352566574	0.00554499966532045
"204"	0.0187257656210507	-0.00666466558903259	0.00571684288632171
"205"	0.0187142997589952	-0.00544650352321921	0.00557516673159084
"206"	0.019881021347133	-0.00233120771917551	0.00506128985113442
"207"	0.0205306909994233	-0.00364153238239319	0.00526928829752925
"208"	0.0221258865178104	-0.00250386061331295	0.0047944229560926
"209"	0.0229945221660823	-7.69871292428182E-4	0.00589926863461864
"210"	0.0245775266460436	8.4916125853002E-4	0.00681438439591869
"211"	0.0260950773007436	0.00145413584287177	0.00795327645158586
"212"	0.026540288851367	0.00439727728490182	0.00831013230976614
"213"	0.0276089901052982	0.00576328969844236	0.00910262335542322
"214"	0.0288095412642748	0.00847538370051548	0.00833373792758117
"215"	0.0291403818743379	0.00973440879622765	0.0081671877764879
"216"	0.0285752230117499	0.00855225135127314	0.00801755137175751
"217"	0.0291903838181155	0.007923575906519	0.00781835655413086
"218"	0.0275691698882156	0.00702900481457416	0.0084693062422571
"219"	0.0283613317659392	0.00770943656085841	0.00818879098243442
"220"	0.027906964111968	0.00584204709895128	0.00888018953033712
"221"	0.0282992564932054	0.0068732580220139	0.00825146705746598
"222"	0.0305879342433794	0.00855095326654334	0.00692235497484263
"223"	0.0333648756960877	0.00871017429749736	0.00586647713855438
"224"	0.0339799651144485	0.00685027575295584	0.00478154046820947
"225"	0.0367782659313413	0.0100146910612445	0.00358541196649982
"226"	0.0403957278099312	0.0121405841592595	0.00253179784418641
"227"	0.0409291160291516	0.0138283673723079	0.00296564176911944
"228"	0.0420377697987268	0.0150119682093549	0.00152859260182641
"229"	0.0436007540277185	0.0167084400647634	0.00141835497280239
"230"	0.0431964370772491	0.016923549380163	-5.00159113583525E-4
"231"	0.0421937026536828	0.0197887299372252	-0.00147353349882717
"232"	0.0429042534324869	0.0213210132973612	-0.00289419691421113
"233"	0.044168410391668	0.0265152757369542	-0.00498814354338331
"234"	0.044758251551521	0.0291632202568849	-0.00692771512709253
"235"	0.0473746003349053	0.0315256367063264	-0.00953871420072299
"236"	0.0492402149130845	0.0336267714706201	-0.0115824395621672
"237"	0.0498352306283479	0.033730157136085	-0.0140449542542053
"238"	0.0491835677499216	0.030723046234493	-0.014724793716045
"239"	0.0490898681288487	0.0293000260941971	-0.0157474011523578
"240"	0.0483219347436035	0.0260362478902907	-0.0154625110071461
"241"	0.0473028993854469	0.0227934561792903	-0.0156432004349663
"242"	0.046899029898514	0.0212564909743992	-0.0149175381188194
"243"	0.0472188728324478	0.0230328906998432	-0.0135521810138302
"244"	0.0466704208966413	0.0242297291273853	-0.012657264739395
"245"	0.0460781256226893	0.0247371432992737	-0.0109896860005345
"246"	0.045247946783331	0.0245515949905778	-0.00843931069096763
"247"	0.0453565016379541	0.0264535446547048	-0.00669798990840508
"248"	0.0444779767846432	0.0264705495255987	-0.0040567863097101
"249"	0.0453098108696233	0.0277551953513652	-0.00132078016371161
"250"	0.0463504005999268	0.028547916503636	6.20640845554494E-4
"251"	0.0461950975484648	0.0306406303469969	0.00389991439732649
"252"	0.0460975492661742	0.0342071186518077	0.00525688966504586
"253"	0.0467571152872852	0.0351390080318667	0.00525513704944686
"254"	0.0447127681013583	0.0340345885726713	0.00746486961454943
"255"	0.0428175096978216	0.0358477153647786	0.00899595842786738
"256"	0.0428035887680345	0.0374622715556554	0.00685618120403591
"257"	0.0414071814819624	0.0346932312031527	0.00769800819715862
"258"	0.0392775979563018	0.0357667640217294	0.0072583603744676
"259"	0.0387120690788704	0.0397198480674673	0.00614510377968799
"260"	0.0369587949311678	0.0420778007054649	0.00511835860324062
"261"	0.0354135762453873	0.0423580393437741	0.00593286211298459
"262"	0.0334502627293508	0.0424602716633644	0.00689977026203508
"263"	0.0320147249562726	0.0401663605522345	0.00859456444025617
"264"	0.0306859273708184	0.0350651593691577	0.00966861721829077
"265"	0.0297203162946315	0.0313204387575209	0.0109629166687917
"266"	0.0279455662922689	0.0283110710023896	0.0109628115587214
"267"	0.0263133161867442	0.0232536614646701	0.0105680665840168
"268"	0.0242924190683952	0.0206642706911144	0.00982602779796823
"269"	0.022138673407131	0.0210096577066127	0.00992075057043133
"270"	0.0197435266595779	0.0195091174542183	0.0116888313691076
"271"	0.0159569686110813	0.0167273142359111	0.0152037690064119
"272"	0.0117515950342682	0.015646679350426	0.0204037034941324
"273"	0.00660466494950204	0.0118672750712719	0.0257475234372779
"274"	2.6684842541676E-4	0.00718679703863514	0.0299105174911635
"275"	-0.00580850437002827	0.00379794678047962	0.0344460432419105
"276"	-0.00904149827675473	0.00174756317736225	0.0362042604724335
"277"	-0.0111514231525311	0.00499461585347041	0.0348328858256997
"278"	-0.0107438184146997	0.00931345528792497	0.0328368735567166
"279"	-0.00956410065663425	0.0110294559418442	0.0293099443848978
"280"	-0.00868615559508813	0.0144036471294174	0.0252070871449103
"281"	-0.00866910317743867	0.0162506041936869	0.0232409701353633
"282"	-0.00896674605443682	0.0156259992931669	0.0211730137742958
"283"	-0.0101824416275756	0.0155036076736862	0.0218143469207204
"284"	-0.0105798918582662	0.0172312378942355	0.0223987821548645
"285"	-0.0114731390607626	0.0173372697735539	0.0249780446509745
"286"	-0.0120403181298254	0.0164704479491222	0.0238382828804123
"287"	-0.0131165930611599	0.0181880872288611	0.0242825787632059
"288"	-0.0133640711066159	0.0187576615431142	0.023065892559304
"289"	-0.0143903598287462	0.018274913960863	0.0223023736848341
"290"	-0.014851940076748	0.0200308135719076	0.0182918338413692
"291"	-0.0162604904066235	0.0251801706152434	0.017306676304497
"292"	-0.0170903220885691	0.0256189034667834	0.0162550670815364
"293"	-0.0187164664492665	0.0273453769396966	0.0142333907911245
"294"	-0.0194557267347479	0.0286500644674588	0.0128513856067122
"295"	-0.0201322541213043	0.0311653222881037	0.0137739651839841
"296"	-0.0203057650780488	0.0304523975631667	0.012665132359927
"297"	-0.0209776405606817	0.0297834366623184	0.0122693731871681
"298"	-0.0218700087112166	0.0304322245994357	0.0113613343495961
"299"	-0.0227537336810524	0.0305030396475293	0.011576792638415
"300"	-0.0241226615792916	0.0271834394535355	0.0103223518406234
"301"	-0.0248084299678022	0.0250073108311323	0.0121622771350855
"302"	-0.0239060438500765	0.0248567994786415	0.0110752563196119
"303"	-0.0227673137448943	0.0212851220845002	0.0107032595698575
"304"	-0.0216540069695869	0.0211602327178268	0.00947643359631695
"305"	-0.0201369155194517	0.0197513343747367	0.00822692768204973
"306"	-0.0199590616854529	0.0175089736187053	0.00603778977267526
"307"	-0.0196108452270242	0.0157112907070856	0.00532679920360984
"308"	-0.0186600150477467	0.0163388303715369	0.00379146818101627
"309"	-0.0174372786681882	0.0124242299407572	0.00320106913811507
"310"	-0.0154646813070645	0.0100078631652519	0.00172257716924251
"311"	-0.012975352343743	0.010712284903926	3.8974266538225E-4
"312"	-0.0109706922645862	0.00898335047692913	-0.00120147805957709
"313"	-0.00986129599351132	0.00606197879009703	-2.65821957138992E-4
"314"	-0.00855531749603946	0.00431430487723288	-6.17151611178597E-4
"315"	-0.00657978490896563	0.00486412246352004	-0.00305678164977573
"316"	-0.00493013533869857	0.00258791428811187	-0.00474699271659916
"317"	-0.00414606121697612	0.0017222712595641	-0.0060527946571985
"318"	-0.00309442843274829	0.00192366930964968	-0.0110415170174937
"319"	-0.00101311336877872	4.03575260458962E-4	-0.0165454352760282
"320"	0.0012701666857694	-0.00318816595218688	-0.0200339275907186
"321"	0.00331221091723226	-0.00411629420458512	-0.0236121165078693
"322"	0.00565805689855749	-0.00425929470721818	-0.0256446950938117
"323"	0.00792762181210311	-0.00642863888425022	-0.0264382121719462
"324"	0.00907477948297054	-0.00368698653451182	-0.0260487475313927
"325"	0.00808267063291119	-0.00278736373212815	-0.0254838653495436
"326"	0.0075568513349834	-0.003587158068255	-0.0258648290227144
"327"	0.00712612225559038	-0.00138454714280943	-0.02601615028219
"328"	0.00688347568979563	4.31298512222847E-4	-0.0266792277756903
"329"	0.00571272802235442	-8.62753784613335E-4	-0.0262629190284531
"330"	0.00482060605710253	-1.9388557645906E-4	-0.025473786869309
"331"	0.00404168672799384	0.00152143245161793	-0.0245427992049095
"332"	0.0021660678661787	-0.00124416115658774	-0.0232981342009683
"333"	-1.26761940885386E-4	-0.00147491808033674	-0.0207571113267476
"334"	-0.00230814898542352	9.88590652167692E-4	-0.0181075700359024
"335"	-0.00317020150410779	0.00162408458434882	-0.0168308725605143
"336"	-0.00396566776226838	0.00205954851357355	-0.0154579030019783
"337"	-0.00592949178649033	9.59835150000858E-4	-0.0157992465095105
"338"	-0.00725171794752915	5.34269119014592E-4	-0.0146898467088249
"339"	-0.00760249740853041	-0.00115002698381704	-0.0154553903081345
"340"	-0.00735081276632408	-3.52935761127735E-4	-0.0157171770729749
"341"	-0.00773654221814353	-0.0018314003199753	-0.0146124848287148
"342"	-0.00601422094758321	0.00123082777403482	-0.0127502477205238
"343"	-0.00429188325055845	0.00208074413300922	-0.0112686709366437
"344"	-0.00302447071537204	0.00116151300094685	-0.00866129376095299
"345"	-0.00333572697978318	0.00176366229092718	-0.00530023538420453
"346"	-0.00338571727340499	0.00371220075066572	-0.00199938547619358
"347"	-0.0039151653242213	1.48208823260434E-4	0.00128325700237367
"348"	-0.0048120374936773	-7.37296041375555E-4	0.00538298666708021
"349"	-0.0047612121539501	-5.27932862617028E-4	0.00919328235328763
"350"	-0.00550343724947674	-0.00296853683145585	0.0138498060254209
"351"	-0.00589894563230601	-0.00642773082671679	0.0157847243218753
"352"	-0.00617765035231034	-0.00524725831065682	0.0183730677357282
"353"	-0.00608390416183439	-0.00738281336054105	0.0187950610498667
"354"	-0.00764745506740234	-0.00862714636774339	0.0207109605137678
"355"	-0.00715839831080964	-0.00995336184082227	0.0226140431896498
"356"	-0.00749087921384329	-0.00803466395866994	0.0256293160608784
"357"	-0.00759012216545525	-0.00915738196560914	0.0276546359388498
"358"	-0.00829060191239489	-0.00975444598282383	0.030816649058933
"359"	-0.00853697332343686	-0.00964221023587628	0.0327748448409797
"360"	-0.00950424421713186	-0.0100634181567897	0.033273753932923
"361"	-0.0105872638503248	-0.0140068697507389	0.0355507292290497
"362"	-0.0110759211767947	-0.0159343301694137	0.035244104616221
"363"	-0.0119027368528858	-0.0165830486775364	0.0361970534408816
"364"	-0.0121930207143026	-0.0174642707514262	0.034842457400314
"365"	-0.013802286694869	-0.0187862576735421	0.0332665077196834
"366"	-0.0135541270979258	-0.0200164188721749	0.0288143662893483
"367"	-0.0147114419839346	-0.0222961480502874	0.0272857924807718
"368"	-0.0134061582458889	-0.023330958004471	0.0222432836110276
"369"	-0.0127111765230989	-0.0250707769816919	0.0176694495747841
"370"	-0.0114415892726642	-0.0248302731390786	0.0145787242096592
"371"	-0.0115346192356569	-0.0249792216059505	0.0138563107110176
"372"	-0.0101354777183322	-0.0246340127850253	0.0118328350174589
"373"	-0.0116727101238201	-0.0231017795789874	0.0115287679703841
"374"	-0.0133437593902279	-0.024106778967051	0.0123998558457074
"375"	-0.0154257427804357	-0.0241854202231274	0.0129712111948158
"376"	-0.0163291962246208	-0.023160359733252	0.0128264112566468
"377"	-0.0184458985620662	-0.0211634018633748	0.0129778836687962
"378"	-0.0189041440374228	-0.0225397115677923	0.0119768881335501
"379"	-0.0185416024122691	-0.0205750812851632	0.0114740446263338
"380"	-0.0182555374481914	-0.0193584644067907	0.00950584362965496
"381"	-0.0172773576368138	-0.0165984824008235	0.00799851501850487
"382"	-0.0163011427387007	-0.0146304385877766	0.005817452210923
"383"	-0.015634411705238	-0.0134432549045034	0.00457432582022583
"384"	-0.015694298732155	-0.0148973508651685	0.00133122488826864
"385"	-0.0154171700109849	-0.0149385969994736	-0.00129172355304697
"386"	-0.0156227736016004	-0.0164004370655201	-0.00544218751764235
"387"	-0.0156561106561489	-0.0173702563054999	-0.0087183528687534
"388"	-0.0166767231371149	-0.018582203881708	-0.0134043947840272
"389"	-0.0170594997882479	-0.0178341878667502	-0.0175645292843651
"390"	-0.0182328922358926	-0.0190595629556399	-0.0217143201543499
"391"	-0.0199330149486722	-0.0188214073101955	-0.0246419775539666
"392"	-0.0217520059282313	-0.0181766690786137	-0.0277190652113492
"393"	-0.022659987865339	-0.0171772219257192	-0.029284437470893
"394"	-0.0247923483664462	-0.0154145615517455	-0.0305568958611156
"395"	-0.0263579449981769	-0.0148626864035946	-0.029876079895914
"396"	-0.0286709690824081	-0.016313808683764	-0.0285420219845267
"397"	-0.0296353688430247	-0.0171144113182341	-0.027150094851681
"398"	-0.0302390488484295	-0.0169162631144002	-0.0264650236329017
"399"	-0.0304991481251323	-0.0182004702494793	-0.0234441002825601
"400"	-0.0279669885427674	-0.0187531976415921	-0.0219504841464486
"401"	-0.0254120747805701	-0.0163088146834899	-0.0209779005166417
"402"	-0.0234056237236158	-0.0161338035750812	-0.0194220356659352
"403"	-0.0206306276793829	-0.0147302386115973	-0.0170506052957225
"404"	-0.0168079869674121	-0.0134064920212703	-0.0174963461920705
"405"	-0.0156344465537471	-0.011573543977162	-0.01524695629169
"406"	-0.0128809393409455	-0.0132932056211152	-0.0142612103751464
"407"	-0.0105520762912094	-0.0140328806451108	-0.0137967279741333
"408"	-0.0103163698637848	-0.0146053251935414	-0.0129007012552433
"409"	-0.00948266907016621	-0.0143421896065862	-0.00982707152225969
"410"	-0.0078177924770272	-0.0159649696130941	-0.00997098861475062
"411"	-0.00689757294199277	-0.0133635624847329	-0.00877806416840097
"412"	-0.00610535077660033	-0.0137372976233989	-0.0070389116863872
"413"	-0.00537033653366689	-0.0157119417325949	-0.0053475675538278
"414"	-0.00546893046265797	-0.0155711928993078	-0.0046618300280391
"415"	-0.00385225700356679	-0.0151184136751375	-0.00412885025689321
"416"	-0.00252814975843147	-0.0146761050337246	-0.00286758991709312
"417"	-0.00131557006672059	-0.0135971107387471	-0.00316285431030253
"418"	6.9609565852856E-4	-0.0119885272823176	-0.00397229476904718
"419"	0.00204979075797103	-0.0114506286365709	-0.00336365262440804
"420"	0.00254167254303563	-0.0104187701768127	-0.00125190933210383
"421"	0.0027826433800831	-0.00994602589139107	-2.9985854830776E-4
"422"	0.00258525820320671	-0.00893963896151517	0.00148951227039454
"423"	0.00184030314654425	-0.00905865989807476	0.00390448729507165
"424"	8.76974620018069E-4	-0.00816815734356615	0.00415557173185243
"425"	-0.00176611787191345	-0.00820003975629449	0.00423086975584286
"426"	-0.00421784084317113	-0.00963713429982173	0.0048033854097068
"427"	-0.00695844650403186	-0.0117746906493807	0.00465441538399904
"428"	-0.00967844417050524	-0.012103129624249	0.00464967053001798
"429"	-0.0115516903826889	-0.0144978641406852	0.00709189157213766
"430"	-0.013588012381877	-0.0164707421905073	0.00874163096859871
"431"	-0.0166109082195855	-0.0179217942193595	0.0102789359652116
"432"	-0.0184510578252662	-0.0191032906508244	0.0123926908830184
"433"	-0.0188390375981632	-0.0198263931654073	0.0137830612287891
"434"	-0.0202843193738625	-0.0196426381739959	0.0129393682907379
"435"	-0.0201120981902243	-0.0199973215471512	0.011510606443763
"436"	-0.0196967190661227	-0.0205777366430702	0.0108011830021646
"437"	-0.0191480209703189	-0.0173192905743328	0.00920673547110843
"438"	-0.018152623214379	-0.0157331817626824	0.00690589822069375
"439"	-0.0164467756376941	-0.0124853631951936	0.00430297578961217
"440"	-0.0148722370619698	-0.00730425432051395	0.0035019326042355
"441"	-0.0118674094730486	-0.00169634887312798	0.00232556846255026
"442"	-0.00793220785641566	0.0030221293265856	9.28555958879667E-4
"443"	-0.00662527100342534	0.00861750704336432	8.54839449999819E-4
"444"	-0.00514570983232975	0.0123969187576407	0.00167559269669947
"445"	-0.00323699087024713	0.0149646299108626	2.10890357479021E-4
"446"	-0.00233060023075669	0.0173712047920509	-5.84714527781189E-4
"447"	-0.00191157115191362	0.0188850364085593	-5.6047467818928E-4
"448"	-5.57176357582761E-4	0.0209326174241021	-0.00134652030101926
"449"	0.00173757507762478	0.0210561674437115	-0.00291250573747821
"450"	0.0025049276034559	0.0230095182740228	-0.00169039865760589
"451"	0.00319944147186654	0.0218366378011549	-0.00194029258891776
"452"	0.00380832123103727	0.0235270841635748	-9.33799783401434E-4
"453"	0.004668968051253	0.0238536853152707	-6.12247661621885E-4
"454"	0.00452017583763651	0.0250454350860586	7.57136152991569E-4
"455"	0.00308181615514902	0.0255497054174785	0.00139313230286366
"456"	0.00171423695640491	0.0291082608012934	0.00253762124741929
"457"	3.98778276029997E-5	0.0287524145796469	0.00143013634525619
"458"	-6.16396121706769E-4	0.0276975350663339	-1.22399224118285E-4
"459"	-0.00261748621578911	0.0268927739319373	-9.77144796310591E-4
"460"	-0.00344533062402596	0.0243181745534744	-0.00259975207415503
"461"	-0.00482597316336618	0.0220262698735005	-0.00584052205327434
"462"	-0.0057990996668286	0.0205655129534101	-0.00849474499258486
"463"	-0.00819454171210811	0.0186896974894417	-0.00890730159573589
"464"	-0.0112185834745616	0.0177265269030664	-0.0110868577996591
"465"	-0.0111311167856977	0.0194104952612509	-0.0128440260286527
"466"	-0.0108353280249341	0.0191625681717728	-0.0147966341367117
"467"	-0.0122766556233633	0.019661598085348	-0.0146928598368315
"468"	-0.0131941908168814	0.0205311938945725	-0.0163821362424676
"469"	-0.0118156511775966	0.0212454071980143	-0.0161412391224762
"470"	-0.0130759319894057	0.0197501998157402	-0.0155459339299635
"471"	-0.0132152368905061	0.0165993955395221	-0.0133946841324921
"472"	-0.0120683797311222	0.0144692104343477	-0.0130513488760909
"473"	-0.0113883328978289	0.0120528973061698	-0.0104492615128282
"474"	-0.0109733051720656	0.00829495857204192	-0.00824438223609649
"475"	-0.0103777931994476	0.00784453882083863	-0.00716767250793894
"476"	-0.00995283783994402	0.00892179108664126	-0.00584948233934924
"477"	-0.00892302984816969	0.00789460847354444	-0.00329380329667895
"478"	-0.00758477222097204	0.00821551011206278	-0.00365300043791717
"479"	-0.00621561897525183	0.0074172352157586	-0.00408482789791555
"480"	-0.00421852224283449	0.0058852603276872	-0.00327185741984351
"481"	-0.00156233686840964	0.00452690779232368	-0.00335362934409301
"482"	3.33233203702977E-4	0.00387199662146517	-0.00247097833585025
"483"	0.00186025235239102	0.00247471765105622	-5.75588868876488E-4
"484"	0.00292247075092401	0.00207136981042302	0.00213484997432868
"485"	0.00421555556761888	-9.15950635999862E-4	0.00305468673092288
"486"	0.0037011131882655	-0.00361678028388081	0.00646453177904871
"487"	0.00377264777893981	-0.00468075333224905	0.00762577148426279
"488"	0.00270932473091916	-0.00661903749433867	0.00856872596883103
"489"	0.00271654540150536	-0.00793072838548903	0.00943806429337203
"490"	2.83899851315183E-4	-0.00699248198021847	0.0116898527741537
"491"	-0.00111317688040886	-0.00516602090979624	0.013343448082515
"492"	-0.0023501827698715	-0.00720931698546353	0.0142780672036056
"493"	-0.00203045051559545	-0.00590557123960735	0.0177878808206782
"494"	-0.00173365601403955	-0.00457621160999917	0.0214568250054981
"495"	-2.06969087334602E-4	-0.00568817673417558	0.0243377247390234
"496"	0.00139670439409735	-0.0064740177753237	0.0246371673482484
"497"	0.00196782285135302	-0.00386977435915764	0.026510394993296
"498"	0.00190455966891424	-0.0054296623048455	0.027927677740094
"499"	0.00132714907900004	-0.00737387599889107	0.0278517778515016
"500"	8.28627608670198E-4	-0.0070830215127573	0.027404874393932
"501"	0.00156207407738662	-0.00704085816229159	0.0283097608529632
"502"	0.0017696119776991	-0.00944123976039814	0.0282368468601312
"503"	0.00372229123269405	-0.00737700020284465	0.0260235341471499
"504"	0.00508124778882717	-0.00538492373918681	0.0251977681997988
"505"	0.00570293912051931	-0.00411222036288558	0.0238135831804225
"506"	0.00493791636169556	-0.00278722734956799	0.0218792071990072
"507"	0.00447493778065876	-5.47127982181453E-4	0.0206172643309231
"508"	0.0045204570926005	-3.65450773609724E-4	0.019598262669225
"509"	0.00366438334770184	-6.02352438320149E-4	0.0170100407395791
"510"	0.00360641703582188	-2.18769187356557E-4	0.0158705505077608
"511"	0.00437855561674472	-0.00278561949292598	0.0161058403220588
"512"	0.00685076940281986	-0.00203782369648505	0.0154240453321902
"513"	0.00700885248969164	-0.00263200477469086	0.0152020825275875
"514"	0.00853703407106071	-0.00325510975729219	0.0153290331828804
"515"	0.010770569266396	-0.005299855410561	0.0147423868287388
"516"	0.0107722620572305	-0.00447236069881226	0.0126596266663237
"517"	0.00986808498373068	-0.00843936210708711	0.0109298822601011
"518"	0.0104057650526828	-0.0101899708053675	0.00899609981682637
"519"	0.00995587982191889	-0.0110198164864351	0.00718900484330359
"520"	0.0079558829536338	-0.0105534158730307	0.00517448081110023
"521"	0.00630374567347936	-0.0110800628075754	0.00488482176666818
"522"	0.00567005087036314	-0.00918747693234824	0.00406053693213577
"523"	0.00341849554009531	-0.00823114737415482	0.00366727683061762
"524"	0.00201904105569441	-0.00675918414591328	0.00362786418393688
"525"	0.00217114190586771	-0.00788251243107123	0.00394236631339453
"526"	0.00395262549560932	-0.00677034090143411	0.00309469958495818
"527"	0.00391975517545547	-0.00627600874177439	0.00502112045431271
"528"	0.00489036101251205	-0.00739227639783369	0.00440103109079436
"529"	0.00615320281999114	-0.00567732154787613	0.00367032082821687
"530"	0.00721579979057617	-0.00224726648625973	0.00316075084233638
"531"	0.00739107962718977	5.04683794436138E-5	0.00285317817118322
"532"	0.00797190362938229	0.00324953576181038	0.0013883761856151
"533"	0.00848650632129912	0.00987699957048149	0.00310412166450879
"534"	0.00874577123294025	0.01145738173433	0.00493800798805012
"535"	0.00878599883680573	0.011931605641685	0.0065708630057205
"536"	0.00943687209979814	0.0151168300040772	0.007417858908484
"537"	0.00919241576010468	0.0147309686760159	0.00838139267176535
"538"	0.00923696088693659	0.0117854950691653	0.00891404518475112
"539"	0.0098728838304126	0.0115300617429628	0.00794467256196997
"540"	0.00908313730133488	0.0114005613772063	0.00747812122266472
"541"	0.00740233385723783	0.00828708862012831	0.00799993194978555
"542"	0.00707020955513696	0.00824126971383346	0.00845314748768375
"543"	0.00527237611395171	0.00654730897975152	0.00750500281958543
"544"	0.00264505975539326	0.00329507799067352	0.0075603923601621
"545"	0.00163497989462252	0.00257429340493308	0.00731045171107822
"546"	0.00193826941182731	2.62824684948732E-4	0.00554908703729735
"547"	0.00113784211998211	-0.00327767186001534	0.00309609710236072
"548"	7.26795877594662E-4	-0.00373428474050334	0.00250138680808966
"549"	3.20958977224261E-4	-0.00452743124404882	0.00119149292828908
"550"	-1.50995206793196E-5	-0.00634028254869323	-5.22153783902677E-4
"551"	-0.00114508808558653	-0.00655488259397269	-1.35819183729684E-5
"552"	-0.0018336603162236	-0.00650055737079109	5.93361446411986E-4
"553"	-0.00191075140328603	-0.00786256342551596	-3.54132163114627E-4
"554"	-0.00103060549098514	-0.00795357724453714	1.03865943194937E-4
"555"	3.16403440946085E-4	-0.00770521735916858	8.69756548350427E-4
"556"	0.00133134421308583	-0.00743543852706098	4.81971789498233E-4
"557"	0.00169991285375272	-0.00857696445673455	0.00162284303109986
"558"	0.00240885266489574	-0.00798882093588826	0.00180464382405639
"559"	0.00318277339120496	-0.00891126145417536	8.61621913467887E-4
"560"	0.00205182033931458	-0.00895140980200669	6.31906354396835E-4
"561"	0.00307636358923958	-0.011450249093809	-2.87406342621049E-4
"562"	0.00529502336041353	-0.00984609169759092	-0.00169876642417451
"563"	0.00608722353143167	-0.00891664252123598	-0.00146436837735032
"564"	0.00731806577612626	-0.00690280056730107	-0.00181494721271638
"565"	0.0093777487475304	-0.00866301938376818	-0.00324607953033006
"566"	0.00953205391824179	-0.00855323978868987	-0.00478713658002804
"567"	0.00806225417658095	-0.0103886185569636	-0.00556601596813218
"568"	0.0073808074701556	-0.0112283223205293	-0.00739579536116711
"569"	0.00466284123494155	-0.0127473152207437	-0.00751784603687619
"570"	0.00242085337402782	-0.01055198221157	-0.00807219007371026
"571"	-4.38608114281762E-4	-0.00922635602312679	-0.00726217177131796
"572"	-0.00111951743860911	-0.00685775994625054	-0.00906745112128935
"573"	-0.00249943882453535	-0.00441801993673232	-0.00942710409853609
"574"	-0.00315596442413582	-0.00425620670489839	-0.0105896649806781
"575"	-0.00411043485549257	-0.00401737864621088	-0.00984876634439946
"576"	-0.00568982768893462	-0.00169743255111176	-0.00958220942234105
"577"	-0.00688575962496764	-0.00106862256246663	-0.00943625078513033
"578"	-0.00617053802744103	-9.19730966594533E-4	-0.0122817987350275
"579"	-0.00561434872949284	0.00368980996662544	-0.0134214470670069
"580"	-0.00468634418087259	0.00615913834635327	-0.0150066481004157
"581"	-0.00348862767492738	0.00561328376317633	-0.0158922344691769
"582"	-0.00255336072152226	0.00590640387897979	-0.0160661233398838
"583"	-0.00306171767340355	0.00589204068266477	-0.0132248368008172
"584"	-0.0034342461681597	0.00332486831961772	-0.0111538588634838
"585"	-0.00438204251072421	0.00109349279432453	-0.00919298972314296
"586"	-0.00487092873998402	4.45509168279787E-4	-0.00912551827190106
"587"	-0.00656485399728017	-6.96787384080596E-4	-0.00773777434962627
"588"	-0.00722526602481815	-0.00275983701809331	-0.00673514503160616
"589"	-0.00804104233543313	-0.0033400166308548	-0.00591837786852149
"590"	-0.00880273180890352	-0.00529192465866825	-0.00608020069119936
"591"	-0.0079840973040773	-0.00715453105889209	-0.004455938784638
"592"	-0.00636115918996007	-0.00907957304169583	-0.00429391984121161
"593"	-0.00688984297186538	-0.00883052497433027	-0.00375902314150845
"594"	-0.00641583074661573	-0.0117794752994747	-0.00489998422216789
"595"	-0.00586282754764129	-0.0100348284371341	-0.00493949494517946
"596"	-0.00669011151345739	-0.00737609298205288	-0.00491232002738585
"597"	-0.00810937654849202	-0.00690829221789455	-0.00392068039300494
"598"	-0.00790867024739437	-0.00725194129257816	-0.00226250851539681
"599"	-0.00839313505211256	-0.00443477982758968	-6.53763577338136E-4
"600"	-0.00746978882086732	-0.00693426894935807	0.00201942964194774
"601"	-0.00615473832105655	-0.00915072815670957	0.00311151037270707
"602"	-0.00491599051309654	-0.00907972910992648	0.00595226698660277
"603"	-0.00316962147034806	-0.0107941874653785	0.00774754236553006
"604"	-4.97459166631323E-4	-0.012582669535356	0.00824268632845656
"605"	-7.85904469944762E-4	-0.0129097837218476	0.00999225212863217
"606"	-9.08135295696307E-4	-0.0140865700753208	0.0104813907421049
"607"	-0.00121786856367952	-0.0138836828990139	0.00862626667955984
"608"	-0.00137778486541902	-0.0134130048426206	0.0065820856855074
"609"	-0.00261239792530871	-0.0126407173371444	0.00720002416760582
"610"	-0.00234918346423584	-0.0117510297007995	0.00486188755213527
"611"	-0.00299087395272676	-0.0123678410774441	0.00517658787122172
"612"	-0.00357443841673866	-0.0131705707813092	0.00616120809177711
"613"	-0.00522178758990902	-0.0116901094070867	0.0063289247873233
"614"	-0.0066658622734296	-0.0128512838239603	0.00628187519534087
"615"	-0.00769161068389658	-0.0148370411732234	0.00617715464486286
"616"	-0.00849207443505701	-0.014869731487183	0.00560689521227253
"617"	-0.00881774545314608	-0.0147225024070017	0.00389083945077089
"618"	-0.00872530013303553	-0.0168014194091849	0.0027942710406215
"619"	-0.00992406459620526	-0.0192600096784886	0.00195698872121977
"620"	-0.0103065446592226	-0.0186404290208493	5.13121815914955E-4
"621"	-0.010777074165555	-0.0175303722120721	-0.00124296092396855
"622"	-0.0118030722908319	-0.0180906143594916	-0.00279430869645509
"623"	-0.0131839965954408	-0.0196615294076634	-0.00381173295795725
"624"	-0.0128240477409888	-0.0187755220837552	-0.00561280955043192
"625"	-0.0139616479819444	-0.0185892485718096	-0.00686628306399528
"626"	-0.0151179111149933	-0.0190557178694527	-0.0084647903639106
"627"	-0.0156739704272236	-0.0210030443177823	-0.0096165809595335
"628"	-0.0150966538956928	-0.0208711520319538	-0.0107649781472883
"629"	-0.0157749157084168	-0.0202875165929331	-0.0115439318136601
"630"	-0.0165446693512428	-0.0207714099199376	-0.0119323065772805
"631"	-0.0155186528601737	-0.0206037853623991	-0.0127168123017274
"632"	-0.0144459187244099	-0.0196478200452422	-0.0135246659352063
"633"	-0.0144106385942891	-0.0208140956123949	-0.014512502950827
"634"	-0.013007010588086	-0.0200434999301328	-0.0158520598555573
"635"	-0.0114414612798093	-0.0196014110916957	-0.0169759542802718
"636"	-0.0115883159945721	-0.0199219381055201	-0.0172580088022997
"637"	-0.0112922260732461	-0.0194762079019769	-0.0186374438231303
"638"	-0.0109507043507303	-0.0176092467468338	-0.0197097968265253
"639"	-0.0121435685783738	-0.0194553749246813	-0.0209687619715525
"640"	-0.0136251044217064	-0.0188939838224027	-0.0211670164431847
"641"	-0.0147761088187802	-0.0173472872569785	-0.0217764526060181
"642"	-0.0164343115319806	-0.0169440853017577	-0.0214264606603131
"643"	-0.0172319306302591	-0.0146244402879878	-0.0216240328402065
"644"	-0.0181848520309135	-0.0145306100639299	-0.0212186331082545
"645"	-0.017827715942713	-0.0152352611773321	-0.0212083011015897
"646"	-0.0178938734890704	-0.0159122303142875	-0.0215722522715089
"647"	-0.0182392496049369	-0.0167484732881213	-0.0207969634508606
"648"	-0.0199354169298175	-0.018060674950749	-0.0190369999477917
"649"	-0.0195590879104042	-0.0139202488552133	-0.0189329641165687
"650"	-0.0197275393266854	-0.0123826827759418	-0.0195447608042827
"651"	-0.0197496081907328	-0.0108852862787764	-0.0186260661663593
"652"	-0.018589839520713	-0.00859998821954024	-0.0190052039387337
"653"	-0.0177616740566103	-0.0069903372470566	-0.0188842310273914
"654"	-0.0178112713291599	-0.00520507677668728	-0.0187972923993946
"655"	-0.0178390333711227	-0.00175999364759779	-0.0177063532565009
"656"	-0.0177315234386039	8.39349810438164E-4	-0.0176260180022249
"657"	-0.0193452723964368	0.00324423817118135	-0.0166620528636984
"658"	-0.0194280955923713	0.00538906209594004	-0.0161647315336999
"659"	-0.0197113697749753	0.00775862234095187	-0.0144831673543425
"660"	-0.0202176533472584	0.00938972669097756	-0.0151908617849677
"661"	-0.0216179289483222	0.0114253109501132	-0.0135394749182466
"662"	-0.0223366642403983	0.0115248645472278	-0.0128297790118345
"663"	-0.0231910113542066	0.0133926738523656	-0.0125123537350552
"664"	-0.0247339228226589	0.0146824186353694	-0.0125342846131247
"665"	-0.025748107852243	0.0167512586679187	-0.00986804740198564
"666"	-0.0256554995596806	0.0171917893606009	-0.00874744267199431
"667"	-0.0267079452252934	0.0190974986811705	-0.00706582398908246
"668"	-0.027024923966806	0.0211757262618624	-0.00524064773994084
"669"	-0.0258304639275914	0.0216420203397972	-0.00361383382034788
"670"	-0.0253939251599606	0.0201730947583461	-0.00382672365103996
"671"	-0.023608017848282	0.0201061113933595	-0.00525517696313592
"672"	-0.0213496269415064	0.0199012327312718	-0.00630489411149328
"673"	-0.0186532510469518	0.0205376684809883	-0.00782037403841776
"674"	-0.0164190549532461	0.0186106750060399	-0.00900231107211458
"675"	-0.0128744829827341	0.017575499801055	-0.00811528474167262
"676"	-0.00994395256894218	0.0166912474644993	-0.0076313229385651
"677"	-0.00652636356479577	0.0160037118527752	-0.00672186807056715
"678"	-0.00488110250605315	0.0120884286059683	-0.00552144770506482
"679"	-0.0025461545885107	0.0109808132141414	-0.00425435832659251
"680"	-4.82825677648556E-4	0.00981186894466847	-0.00385788592185576
"681"	7.05085486231245E-4	0.0092113792203998	-0.00284480311232612
"682"	0.00248116679263992	0.00658217715857082	-0.00321085700410549
"683"	0.00613007995685536	0.00613094826901049	-0.00366666536309351
"684"	0.00850513306783643	0.00262850890240521	-0.00334648577600213
"685"	0.011169473489069	0.00308024884509971	-0.0047235700731096
"686"	0.0130473547224828	5.24613300244658E-4	-0.0044372627275888
"687"	0.0153734842972045	0.00195056650023434	-0.00326395705210823
"688"	0.0158932353148376	-1.27336218491036E-4	-5.08625115666622E-4
"689"	0.0171361012757184	0.00157807268392642	2.85996091953417E-4
"690"	0.0171925753875812	-9.15728539010991E-4	0.00107164505036972
"691"	0.0183086939565438	-0.0029824499694373	0.00137574246558697
"692"	0.0180336021886867	-0.00414730962869367	2.73765977562272E-4
"693"	0.0182676548465386	-0.00323498977212624	-0.00162796560083664
"694"	0.0178434570182077	-0.00339527919057653	-0.00237276342006547
"695"	0.0173374477141231	-0.00338611939746058	-0.00214745063314927
"696"	0.0167200146817486	-0.00159348151509315	-0.00258543688645376
"697"	0.0166879671836008	-8.95746719842318E-4	-0.00270934503274001
"698"	0.0160599437736938	-0.00377852188848875	-0.00396131229992368
"699"	0.0149870071772573	-0.00546609581372848	-0.00394522854178769
"700"	0.0146797431540971	-0.00523079214257115	-0.00502723826575424
"701"	0.0143946717673139	-0.00347541249541092	-0.00663145290033179
"702"	0.0138865299313856	-0.00293252508321163	-0.00807351883423049
"703"	0.0131489430109716	0.00238652330720365	-0.00745871180599293
"704"	0.0128690945953147	0.00563351267851067	-0.0074293478224282
"705"	0.0117939283477658	0.00786195345367485	-0.00634532069396778
"706"	0.0100459416442336	0.00803157653435338	-0.00366700375143863
"707"	0.00817497910764275	0.00752301520351686	-0.00105224672787563
"708"	0.00686195031960101	0.00485723337586467	-3.62619958738894E-4
"709"	0.00570153573852658	0.00642292503247385	8.08254052079871E-4
"710"	0.00372960676294914	0.00765357653869122	0.00282861280182804
"711"	0.0015124575104314	0.00783332840951427	0.00416111315793011
"712"	-3.32520061054711E-5	0.0103209720013003	0.00718507785448089
"713"	-0.00192785450550947	0.0139685079346283	0.00896442310290389
"714"	-0.00426788919757439	0.012773211868806	0.0109549640981375
"715"	-0.00509544834625612	0.00980403450398383	0.0110761204530439
"716"	-0.00490508005682992	0.0101876407045185	0.0109947868373279
"717"	-0.00433757342074266	0.0089365773968527	0.00901595084595396
"718"	-0.00435284140810971	0.00681892845136154	0.00737339132128497
"719"	-0.00362568370476794	0.00909858944586979	0.00477588443816477
"720"	-0.00314987776918471	0.0113034495511921	0.00366252698172824
"721"	-0.00332497502114675	0.0128123122609837	0.00148798921078011
"722"	-0.00408773102300817	0.0142837417971256	-6.37232206109381E-4
"723"	-0.00442044985863115	0.0152784753033942	-2.99584958280007E-4
"724"	-0.00433056082435829	0.0146941550001743	-0.00104438382621448
"725"	-0.00551752470050651	0.0142489018262029	-2.99588381284158E-4
"726"	-0.00533731248933598	0.0148026343635456	2.64670701634057E-4
"727"	-0.00530624073576196	0.0159294850877799	0.00160205601201471
"728"	-0.00440604834466426	0.0186992476028619	0.00203026791094999
"729"	-0.00548024056902989	0.020509655854886	0.00447441615091772
"730"	-0.00481412537335564	0.0238049347817106	0.0049682835125744
"731"	-0.00381294718230032	0.0238182210481267	0.00476184713850448
"732"	-0.00298823660836931	0.0240697908895263	0.0055629173870154
"733"	-0.00274335624075606	0.0229651888772519	0.00616105254773879
"734"	-0.00105436971783388	0.0233659818831933	0.00561365861229955
"735"	-3.5834902564119E-4	0.0218860634892411	0.0057180646903804
"736"	-3.29258857077324E-4	0.0226897887839407	0.00725259700752808
"737"	7.75508696556722E-4	0.022658003796894	0.00719614872351332
"738"	0.00179512440433185	0.0237867880137931	0.00669899232811915
"739"	0.00277353050836946	0.0215340963265796	0.00799200001965177
"740"	0.00454974745662167	0.0212424538736408	0.00909282671515491
"741"	0.00517294238924741	0.0206371688863654	0.0112282366450929
"742"	0.00475932378651568	0.0204048318112509	0.0131045579049852
"743"	0.00391523177332703	0.01793232482919	0.0150793525975366
"744"	0.00183382980593652	0.0181637958353985	0.0153922081891771
"745"	-4.28279225520699E-4	0.0160941467073956	0.0161511645052049
"746"	-0.00265795444837732	0.0132525148588723	0.0168930775141705
"747"	-0.00464854467554627	0.0116253127020047	0.0196460920991043
"748"	-0.0057033179605123	0.0109738331034479	0.0189303411716114
"749"	-0.00511561689849186	0.00924254004149754	0.0199556050330573
"750"	-0.00491081056095593	0.0082089763791374	0.0204425916266368
"751"	-0.00376673133127496	0.00768473424723732	0.0199002300184241
"752"	-0.00285082208165691	0.00425675643015878	0.0184882158117515
"753"	-0.00189003600492547	8.29272583860486E-4	0.0199945687838638
"754"	-7.47229460171836E-4	-0.00255936493238246	0.0213594143633663
"755"	9.94787541523226E-4	-0.00292943050098956	0.0222934825183183
"756"	0.0036708882236102	-0.00491090633028484	0.0235021435366822
"757"	0.00740844862192968	-0.00312915462838725	0.0240781637816851
"758"	0.010502928873143	-0.00138353335758686	0.0259595261096414
"759"	0.0130296395646328	0.00238333983628028	0.0246448653340056
"760"	0.0156499864620557	0.00522527778790582	0.023570294290462
"761"	0.0174702957823072	0.00779561126837115	0.019349724667877
"762"	0.0169252400507704	0.0104753970007947	0.0173847835664585
"763"	0.0161278023085653	0.011281728271815	0.0126817057013909
"764"	0.0145142473544745	0.0107585460030047	0.00888837471351632
"765"	0.0118444338795823	0.00900104152104479	0.00411489774086848
"766"	0.00913056859415934	0.0107384041139931	0.00260163673565595
"767"	0.00650922566960435	0.00851263856492888	-0.00301885782851308
"768"	0.00513459859717384	0.00884420516323043	-0.00679779187420945
"769"	0.00409232917722272	0.00852211274674447	-0.0110302682323216
"770"	0.00420698113309367	0.012792142529721	-0.0140678810720698
"771"	0.0034155290771034	0.0125196038078089	-0.0162955142345688
"772"	0.00351501468622404	0.0132690137133479	-0.0164530093570588
"773"	0.00355072281916547	0.0159553539571304	-0.0180511453674617
"774"	0.00412678875383784	0.0173111811601736	-0.0186250310938837
"775"	0.0032676665733271	0.0160584757900702	-0.0172486255453063
"776"	0.00226435265187925	0.0147643462864996	-0.0169132287791698
"777"	0.00102410782926506	0.0134857463949362	-0.0166633690002374
"778"	-0.0014219788682776	0.00854507699608077	-0.0142271583212457
"779"	-0.0034877893142289	0.00437515744478076	-0.0128066539722479
"780"	-0.00502317307535078	4.44147378992128E-4	-0.012976976503891
"781"	-0.0053667499913697	-0.0029823709301516	-0.0143869257618939
"782"	-0.00609581865214792	-0.0059249019086222	-0.0144283579012678
"783"	-0.00514355885900938	-0.00610354692313726	-0.0156938949127423
"784"	-0.00527319035170672	-0.00612411233219582	-0.0160606018194972
"785"	-0.00492707192202695	-0.00716064065013278	-0.0172517914024411
"786"	-0.00510975806034229	-0.00525383280861083	-0.0174340036401775
"787"	-0.00556719655894941	-0.00350067740787769	-0.0172746785414613
"788"	-0.00811720915528049	-5.76259837894172E-4	-0.0171476623345468
"789"	-0.00846373469763874	0.00177011651645284	-0.0173467017560578
"790"	-0.00976279239611531	0.00332790669127807	-0.016376436159661
"791"	-0.0104093419608265	0.00301392315810558	-0.0166181944431316
"792"	-0.00975373187655257	0.00269157982488891	-0.0194450840067252
"793"	-0.00740756047135426	1.60563840830872E-4	-0.0228773468368315
"794"	-0.00774540063986257	-0.00226449462428154	-0.0247936817540635
"795"	-0.00636343063590788	-0.00240572986559978	-0.0271183757317442
"796"	-0.00552557819529462	-0.0022367113680853	-0.0281992896260017
"797"	-0.0044707298533591	1.00231593113899E-4	-0.0272059986059269
"798"	-0.00325035862528829	0.00301938839747837	-0.0239273488542226
"799"	-0.0018876305905774	0.00556325661685172	-0.0207518826698499
"800"	-0.00153494239288177	0.00432528405074024	-0.0178033044967038
"801"	-9.41007982822566E-4	0.00408550840991885	-0.0143364442281175
"802"	-8.67349100566655E-4	0.00365705699672498	-0.0120536570182953
"803"	-0.00193952830409324	0.00210485797150163	-0.0101134409433998
"804"	-0.00188229499405575	-1.58515531339975E-4	-0.00833145735664022
"805"	-0.0010498760146777	9.65827658563519E-4	-0.00751723735378825
"806"	-0.00107280580213897	7.59746867207328E-4	-0.0068310330928461
"807"	5.95649517733775E-4	1.52469487993389E-4	-0.00592248499785825
"808"	0.00122566624898735	-0.00127119139538284	-0.00514920587329756
"809"	0.00211538961932771	-4.96535694417183E-4	-0.0053264185648839
"810"	0.0023067043771313	-0.00193019657485084	-0.00429745947284644
"811"	0.00270796381560319	-0.00174908103694689	-0.00330748238890741
"812"	0.00126674641223814	-0.00299004992144298	-0.00214161555056089
"813"	8.41783577766712E-4	-0.00341937673987865	-0.00303874771693454
"814"	4.27554096028908E-4	-0.00488790286157523	-0.00280695224461419
"815"	-2.35981822645401E-4	-0.00495927417694076	-0.00357344707946347
"816"	-5.50079174138419E-4	-0.0049633137824485	-0.00360837951167245
"817"	-7.86340076952691E-4	-0.00612009692513424	-0.00434232841909391
"818"	8.10563853128612E-4	-0.00372268582427452	-0.00366031494459689
"819"	0.00138739420520168	-0.00307374378128394	-0.00410025585344912
"820"	0.0017072426334224	-0.00136225794016422	-0.00386610456645975
"821"	0.00226085479638468	-9.86069907701261E-4	-0.00370213160119704
"822"	0.00170975512898994	7.05758079138953E-5	-0.00300804887019607
"823"	7.66453512718834E-4	-0.00202756596442819	-0.00297836430935139
"824"	2.39601021572737E-4	-8.04184016483258E-4	-0.00199616094289029
"825"	3.65606880376209E-4	-6.10623567694515E-4	-5.18328471563223E-4
"826"	-3.07171795349724E-4	-0.00475036238155182	-7.10584606423658E-4
"827"	-2.85348481512999E-4	-0.00597560115000674	3.21716481995977E-4
"828"	-0.00207661967585229	-0.00710639218021186	0.00285066252385655
"829"	-0.00397634912448579	-0.00862881350589305	0.00457522407637731
"830"	-0.00643433468077009	-0.0109562849888014	0.00670236085628228
"831"	-0.00859874741363039	-0.0105581552749097	0.00899155002173337
"832"	-0.00961961607629066	-0.0123956247284883	0.011029051284643
"833"	-0.0096795162825824	-0.0140484943559944	0.0127217956023682
"834"	-0.00984351087407946	-0.0167829498859085	0.015431498495931
"835"	-0.00887434486827129	-0.0191071661941506	0.0170347321538556
"836"	-0.00780205489664564	-0.0191782017454441	0.0185895013269168
"837"	-0.00675771540690569	-0.0199371530738804	0.0191184459049367
"838"	-0.0065745190978338	-0.020190651798337	0.0204728351761101
"839"	-0.00564963837642945	-0.0187433482756457	0.0214371121198004
"840"	-0.00557514830211074	-0.0180851518792044	0.0214514468772452
"841"	-0.0044964430591403	-0.0180075796064263	0.0225797514663788
"842"	-0.00356478431390379	-0.015964415262579	0.02418530530917
"843"	-0.00128197238016164	-0.0140452039844687	0.0239403134403772
"844"	8.06006442608831E-4	-0.0142804573285421	0.0236337172017628
"845"	0.00391263034237698	-0.0129362048084932	0.0225772958462329
"846"	0.00546551195928263	-0.0113693745564346	0.0217355630614415
"847"	0.00523921269903947	-0.0127821112605191	0.0215213159193261
"848"	-0.00314230046146537	-0.0233917422981369	0.0288381985098841
"849"	-0.00332756099394208	-0.0226913502335348	0.0263962346884374
"850"	-0.00454734883606584	-0.0224118006326054	0.0259892087901327
"851"	-0.00496850809204678	-0.0211742041647359	0.0240971466342013
"852"	-0.00456366021270293	-0.0193186806654349	0.0206983757188964
"853"	0.00304418502965968	-0.00723493693718313	0.00959737955882501
"854"	0.00353450142073585	-0.00710315357576855	0.00795458978507514
"855"	0.00365609881162894	-0.00665524067603044	0.00659069129186396
"856"	0.0038914273420871	-0.00815857618082822	0.00587496134657235
"857"	0.00571438279218295	-0.00643873037868026	0.00549311732414496
"858"	0.00673748022896141	-0.00841678595918708	0.00411477621154899
"859"	0.00589027680089788	-0.00844601623390006	0.00356806469737094
"860"	0.00574922805939358	-0.00877619299985974	0.00331026481189275
"861"	0.0064405185051867	-0.00640324552717856	0.00295542733818385
"862"	0.00589545078328687	-0.00681002861308878	0.00260425667732124
"863"	0.0067456125233345	-0.00485430818655715	0.00322748557345879
"864"	0.00768193663810329	-0.00347847398237343	0.00369364938240223
"865"	0.00955763821634429	-0.00111319125817493	0.00215577034861581
"866"	0.00949684850479192	-0.00252036167030303	0.00198486253355748
"867"	0.00890882454199233	-0.00389225721365895	0.00157858157672037
"868"	0.00761986691000191	-0.00511067420843965	0.00114318372156557
"869"	0.00646215798082921	-0.00561752143975275	-1.26375620895009E-4
"870"	0.00365162221246308	-0.00645077834182817	7.45042318272955E-4
"871"	0.00314622667458539	-0.00370826159861446	1.61857748577614E-4
"872"	0.00265488026273684	-0.00268834131488065	-5.33939813522137E-5
"873"	0.00298256051048489	-0.00181030834268834	-4.30415978267223E-6
"874"	0.00315574467488834	-0.00207421520159737	8.65003887407408E-4
"875"	0.00375270617720742	-0.00147860252611339	4.83581616989502E-4
"876"	0.00271113676228307	-0.00181872533712792	-1.38597664987745E-4
"877"	0.00208302814942409	-9.90953861323334E-4	6.71711979596011E-4
"878"	0.00150772989843028	5.36453628883213E-4	0.00101910413942371
"879"	0.00139484315562689	0.00176257625640537	0.00162108234523319
"880"	0.00129532017630191	0.00190828481967925	0.0014058004529588
"881"	0.00169281416060015	0.00130381537965127	0.00253408510303047
"882"	0.00205427709188148	0.00390327877629967	0.00147587506406209
"883"	0.00206486483361067	0.00315829681600928	0.002097022732404
"884"	0.00136143124196891	0.00317220986605074	0.00198743951971864
"885"	0.00147966356752221	0.00337105936585394	0.00220473867346184
"886"	0.00210746065396779	0.00483739975439237	0.00181530419138444
"887"	0.0025135824214126	0.00376091618354157	0.00336515736055657
"888"	0.00283874504771008	0.00550778585633771	0.00258772447679156
"889"	0.00300197171560375	0.00589999222178819	0.00272156907142678
"890"	0.00239560842321055	0.00498142488529287	0.00260247681797183
"891"	7.7799477254473E-4	0.00440988576269601	0.00372031259280814
"892"	2.85446197817341E-4	0.00468701852472403	0.00260170105003056
"893"	-1.35713657257366E-4	0.0025799274913351	0.00264329533897686
"894"	7.10251832412659E-4	0.00316375524053774	0.00150139967953884
"895"	-1.61997824516516E-4	0.00249476939573002	0.00173612971810463
"896"	4.84432395248637E-4	0.00180896996903633	-4.66462110664977E-5
"897"	-2.12275333806206E-4	4.75230381801746E-4	1.86655470845002E-4
"898"	-1.14190294670546E-4	0.00181842603880515	4.67986834289448E-4
"899"	-2.70690952540652E-4	0.0012143432693034	8.46720132057031E-6
"900"	7.17699178047196E-4	0.00294645200226663	3.44098344977165E-4
"901"	2.39931621054697E-4	0.00296776147635586	8.30436028058758E-4
"902"	0.00154486395935025	0.00359943608791295	6.35132346545622E-4
"903"	0.00149476041371052	0.00358418969596797	0.00120871439977886
"904"	9.46704438576482E-4	0.00335809398240535	0.00214522830657589
"905"	0.00109862355503248	0.00229325096933963	0.00226571008472075
"906"	0.00153828061442	0.00197130438058754	0.00169211719614699
"907"	0.00125819983343614	0.0011649942873346	8.67928074892439E-4
"908"	0.0013113956839922	6.88956798344614E-4	6.27421949801572E-4
"909"	0.0025040893371687	0.00117157066756622	8.25232920319058E-4
"910"	0.00321832421999556	0.00171704927433896	-2.86985012764381E-4
"911"	0.00281043757173206	-5.24860590845725E-5	2.10706885673015E-4
"912"	0.00334015660926286	0.00109302501241261	0.00112890968875153
"913"	0.00261452520307121	0.00136014910123623	0.00115046559620725
"914"	0.00113456176107677	0.00187400720339865	0.00139794882033587
"915"	7.29777977891464E-4	6.74756832638975E-4	0.00258902218285649
"916"	0.00154177335112161	0.0028643456230014	0.00278974195064823
"917"	0.00138387400296144	0.00123051002187999	0.00242795195846594
"918"	0.00218914581486732	-5.56640036489985E-4	0.00345489198102901
"919"	0.0034316052847316	-0.00112196800562528	0.00290971204541046
"920"	0.00327576234877677	5.24700578948464E-5	0.00247072463101228
"921"	0.00348592164316043	-9.99841883418822E-4	0.00292849742686072
"922"	0.00355362238424334	-6.90037471984272E-4	0.00227828882658277
"923"	0.00513602137136162	0.00118436985618889	0.00178146373373865
"924"	0.00416042796720961	0.00124500665515158	0.00259410418179644
"925"	0.00528053914370991	6.72666097159381E-4	0.00230663615637979
"926"	0.00502175386035591	0.00215028263041459	0.00152965875469203
"927"	0.00417170732779499	5.26140090111505E-4	0.00261641125823213
"928"	0.00309729667936441	7.21612500886088E-5	0.00260558610286409
"929"	0.00427345050715633	-0.001326288389807	0.00136793724834021
"930"	0.00352082366978276	-5.3262570622127E-4	0.00126561172684709
"931"	0.00374194253400158	1.21919637246886E-4	0.00197877095092245
"932"	0.00463038279558606	0.00399909233383375	9.63725295791798E-4
"933"	0.00476555488855301	0.00591422189919238	2.2997218012633E-4
"934"	0.00435059687875751	0.00765146944832961	8.11626076505583E-4
"935"	0.00456603605169091	0.00715075293417893	6.69990814296127E-4
"936"	0.00444537991625881	0.0055600814510187	3.50164401040821E-4
"937"	0.0033090915379151	0.00459305274841992	0.00186250160654701
"938"	0.00281756217624294	0.002772485752036	0.00247847078768352
"939"	0.00324897561803351	0.00312225129331934	0.00281322474580387
"940"	0.00306768152989768	0.00291385129619354	0.00236482977144175
"941"	0.00342768037169343	0.00324723809253875	0.00198386870536193
"942"	0.00422891712009042	0.0025714774963475	0.00182123606240315
"943"	0.00450819541018409	0.00110895487680771	0.00137838501977892
"944"	0.00463136252848944	4.85782650149171E-4	7.43125203259449E-4
"945"	0.00475074587749711	0.00186300157172196	0.00245025508193043
"946"	0.00485036421759619	0.00185293479647841	0.00406347612896351
"947"	0.00548286979916624	0.00153488432555919	0.0036014674177812
"948"	0.00580997703749729	0.00307181594157384	0.00380760656145227
"949"	0.00563376957040327	0.00286971858981923	0.00471503580011239
"950"	0.00734441238894182	0.00174887088585034	0.00395157586311845
"951"	0.00731004082921371	0.00159042341729046	0.0024720063367647
"952"	0.00715114405733434	0.00216010804529412	0.0025313350113798
"953"	0.00803763982049465	0.00123112053904143	0.0022579335661817
"954"	0.00910929018114153	0.00233574235202995	0.00210804864479124
"955"	0.00842172906173906	0.00206289383024766	0.00162774609257938
"956"	0.00850831108327925	5.07446033624891E-4	0.00290735557781434
"957"	0.00915561061387729	-8.45487257232217E-4	0.00365626654067866
"958"	0.00878126639280235	7.66076716041168E-4	0.00354917392416464
"959"	0.00787156153222168	9.63312021744397E-4	0.00512603293234144
"960"	0.0074097797802272	9.98039056550073E-4	0.00624238241841913
"961"	0.00774870767708794	0.00230705043616972	0.00544532653108105
"962"	0.00721020251869523	0.00236541822909052	0.00636831380283554
"963"	0.00606689995951495	-6.3943683644924E-6	0.00814278129154803
"964"	0.00566298216176668	-0.00254986210352017	0.00708420439819851
"965"	0.00513929799476685	-0.00221407656712696	0.00810692781290817
"966"	0.00381578166295648	-0.00270100391254102	0.0101656595262593
"967"	0.00273466014558747	-0.00433247676522461	0.00944194411226853
"968"	0.00292126595040786	-0.00490655453061869	0.00834595852656899
"969"	0.00236492391763611	-0.00608535061319253	0.00861348611690721
"970"	0.00123238755838383	-0.00894505606892822	0.00787469065890868
"971"	0.00101661679718722	-0.00936531310629082	0.00664751698483009
"972"	5.68271307185138E-5	-0.00963809411348113	0.00674874515835645
"973"	-6.46986323044036E-4	-0.00942827568671457	0.00783168605323464
"974"	-0.00169120917971656	-0.00926240768433859	0.00818952643111397
"975"	-0.00140760710823936	-0.00815732384745463	0.00788078445187119
"976"	-0.00251943569452203	-0.00891400065676668	0.00845801367790141
"977"	-0.00231783945079682	-0.00933936792232676	0.00973887497544884
"978"	-0.003103204681824	-0.00999048728909117	0.0098642714170992
"979"	-0.00290979024805947	-0.0122167724481714	0.0100687534729733
"980"	-0.00327541939509781	-0.0145613422155004	0.0113591808472688
"981"	-0.00311525952159262	-0.0150165321117987	0.0117808542379358
"982"	-0.00260010340395179	-0.0153675335590439	0.0112621431407517
"983"	-0.00251753044807345	-0.0162428021181813	0.0106867074760235
"984"	-0.00260492151578049	-0.0145850798473859	0.00996694100722819
"985"	-0.00334124296780913	-0.0120902347222628	0.0106966069709873
"986"	-0.00283966860287475	-0.0131874787339016	0.0112790730577878
"987"	-0.00434428694819003	-0.0127675296330623	0.0108492851851443
"988"	-0.00497417422343317	-0.0154442530569862	0.0117609432893784
"989"	-0.00458769555220008	-0.0156988115682149	0.0116825269829512
"990"	-0.0054220967316732	-0.0186795734190984	0.0105105674876192
"991"	-0.00632096910108609	-0.018551280891892	0.0103400110573956
"992"	-0.00603267233607559	-0.0191393965860324	0.0114962636586992
"993"	-0.00698915124747468	-0.0177499507394566	0.0118903070887288
"994"	-0.00731745526097043	-0.01845009806452	0.0130717550774288
"995"	-0.00645586964329346	-0.0169307408932068	0.0144297696145092
"996"	-0.0061643249954289	-0.0176763320344258	0.0150351155064505
"997"	-0.00601183354024142	-0.0168777409884413	0.0151302825922819
"998"	-0.00555663326948269	-0.0180075082283315	0.0147868084620594
"999"	-0.00656526645362083	-0.0194886230300994	0.0151868060426117
"1000"	-0.00658328212883949	-0.0227791422176051	0.0144392924289819
"1001"	-0.00668212116264581	-0.0261130403178692	0.0149602998201351
"1002"	-0.00741287246951608	-0.0294500827724483	0.0149560452467558
"1003"	-0.00749382272613408	-0.0297775534187326	0.0157946171386761
"1004"	-0.00734062495120734	-0.0307781844812059	0.0163181067424051
"1005"	-0.00768863631890997	-0.0296560542789501	0.0161438778871772
"1006"	-0.00756399908235943	-0.0283782197715976	0.0159165597189444
"1007"	-0.00643616181226344	-0.0285164847313331	0.0157083230310769
"1008"	-0.00665948467311683	-0.0296683316571662	0.0150138007802602
"1009"	-0.00645332001970107	-0.0279264841773572	0.0154733115761184
"1010"	-0.00704178777241897	-0.0259243103196617	0.0165799648626073
"1011"	-0.00733399938997194	-0.0231540790429353	0.0143132737322358
"1012"	-0.00739833586215309	-0.0115649997619895	0.00946681653572594
"1013"	-0.00678603199598598	-0.00640719709765163	0.00868676779999691
"1014"	-0.0070434834503274	-0.00203202529865107	0.00522271680789906
