719.421	
720.629	
721.838	
723.046	
724.253	
725.46	
726.667	
727.874	
729.08	
730.286	
731.492	
732.697	
733.903	
735.107	
736.312	
737.516	
738.72	
739.924	
741.127	
742.33	
743.532	
744.735	
745.937	
747.139	
748.34	
749.541	
750.742	
751.942	
753.143	
754.343	
755.542	
756.741	
757.94	
759.139	
760.338	
761.536	
762.733	
763.931	
765.128	
766.325	
767.521	
768.718	
769.914	
771.109	
772.305	
773.5	
774.695	
775.889	
777.083	
778.277	
779.471	
780.664	
781.857	
783.049	
784.242	
785.434	
786.625	
787.817	
789.008	
790.199	
791.389	
792.58	
793.77	
794.959	
796.149	
797.338	
798.526	
799.715	
800.903	
802.091	
803.278	
804.466	
805.653	
806.839	
808.026	
809.212	
810.397	
811.583	
812.768	
813.953	
815.138	
816.322	
817.506	
818.69	
819.873	
821.056	
822.239	
823.421	
824.604	
825.785	
826.967	
828.148	
829.329	
830.51	
831.691	
832.871	
834.051	
835.23	
836.41	
837.589	
838.767	
839.946	
841.124	
842.302	
843.479	
844.656	
845.833	
847.01	
848.186	
849.362	
850.538	
851.713	
852.889	
854.064	
855.238	
856.412	
857.586	
858.76	
859.934	
861.107	
862.28	
863.452	
864.624	
865.796	
866.968	
868.14	
869.311	
870.481	
871.652	
872.822	
873.992	
875.162	
876.331	
877.5	
878.669	
879.838	
881.006	
882.174	
883.342	
884.509	
885.676	
886.843	
888.009	
889.176	
890.342	
891.507	
892.673	
893.838	
895.002	
896.167	
897.331	
898.495	
899.659	
900.822	
901.985	
903.148	
904.311	
905.473	
906.635	
907.796	
908.958	
910.119	
911.28	
912.44	
913.6	
914.76	
915.92	
917.08	
918.239	
919.397	
920.556	
921.714	
922.872	
924.03	
925.187	
926.345	
927.501	
928.658	
929.814	
930.97	
932.126	
933.282	
934.437	
935.592	
936.746	
937.901	
939.055	
940.208	
941.362	
942.515	
943.668	
944.821	
945.973	
947.125	
948.277	
949.429	
950.58	
951.731	
952.881	
954.032	
955.182	
956.332	
957.482	
958.631	
959.78	
960.929	
962.077	
963.225	
964.373	
965.521	
966.668	
967.815	
968.962	
970.109	
971.255	
972.401	
973.547	
974.692	
975.837	
976.982	
978.127	
979.271	
980.415	
981.559	
982.703	
983.846	
984.989	
986.132	
987.274	
988.416	
989.558	
990.7	
991.841	
992.982	
994.123	
995.264	
996.404	
997.544	
998.683	
999.823	
1000.96	
1002.1	
1003.24	
1004.38	
1005.52	
1006.65	
1007.79	
1008.93	
1010.07	
1011.2	
1012.34	
1013.47	
1014.61	
1015.75	
1016.88	
1018.02	
1019.15	
1020.29	
1021.42	
1022.55	
1023.69	
1024.82	
1025.96	
1027.09	
1028.22	
1029.35	
1030.49	
1031.62	
1032.75	
1033.88	
1035.01	
1036.14	
1037.27	
1038.4	
1039.53	
1040.66	
1041.79	
1042.92	
1044.05	
1045.18	
1046.31	
1047.44	
1048.56	
1049.69	
1050.82	
1051.95	
1053.07	
1054.2	
1055.32	
1056.45	
1057.58	
1058.7	
1059.83	
1060.95	
1062.08	
1063.2	
1064.33	
1065.45	
1066.57	
1067.7	
1068.82	
1069.94	
1071.07	
1072.19	
1073.31	
1074.43	
1075.55	
1076.67	
1077.8	
1078.92	
1080.04	
1081.16	
1082.28	
1083.4	
1084.52	
1085.63	
1086.75	
1087.87	
1088.99	
1090.11	
1091.23	
1092.34	
1093.46	
1094.58	
1095.7	
1096.81	
1097.93	
1099.04	
1100.16	
1101.28	
1102.39	
1103.51	
1104.62	
1105.74	
1106.85	
1107.96	
1109.08	
1110.19	
1111.3	
1112.42	
1113.53	
1114.64	
1115.75	
1116.87	
1117.98	
1119.09	
1120.2	
1121.31	
1122.42	
1123.53	
1124.64	
1125.75	
1126.86	
1127.97	
1129.08	
1130.19	
1131.3	
1132.41	
1133.51	
1134.62	
1135.73	
1136.84	
1137.94	
1139.05	
1140.16	
1141.26	
1142.37	
1143.48	
1144.58	
1145.69	
1146.79	
1147.9	
1149	
1150.11	
1151.21	
1152.31	
1153.42	
1154.52	
1155.62	
1156.73	
1157.83	
1158.93	
1160.03	
1161.13	
1162.24	
1163.34	
1164.44	
1165.54	
1166.64	
1167.74	
1168.84	
1169.94	
1171.04	
1172.14	
1173.24	
1174.34	
1175.43	
1176.53	
1177.63	
1178.73	
1179.83	
1180.92	
1182.02	
1183.12	
1184.21	
1185.31	
1186.4	
1187.5	
1188.6	
1189.69	
1190.79	
1191.88	
1192.98	
1194.07	
1195.16	
1196.26	
1197.35	
1198.44	
1199.54	
1200.63	
1201.72	
1202.81	
1203.91	
1205	
1206.09	
1207.18	
1208.27	
1209.36	
1210.45	
1211.54	
1212.63	
1213.72	
1214.81	
1215.9	
1216.99	
1218.08	
1219.17	
1220.26	
1221.35	
1222.43	
1223.52	
1224.61	
1225.7	
1226.78	
1227.87	
1228.96	
1230.04	
1231.13	
1232.21	
1233.3	
1234.38	
1235.47	
1236.55	
1237.64	
1238.72	
1239.81	
1240.89	
1241.97	
1243.06	
1244.14	
1245.22	
1246.3	
1247.39	
1248.47	
1249.55	
1250.63	
1251.71	
1252.79	
1253.88	
1254.96	
1256.04	
1257.12	
1258.2	
1259.28	
1260.36	
1261.43	
1262.51	
1263.59	
1264.67	
1265.75	
1266.83	
1267.9	
1268.98	
1270.06	
1271.14	
1272.21	
1273.29	
1274.37	
1275.44	
1276.52	
1277.59	
1278.67	
1279.74	
1280.82	
1281.89	
1282.97	
1284.04	
1285.11	
1286.19	
1287.26	
1288.34	
1289.41	
1290.48	
1291.55	
1292.63	
1293.7	
1294.77	
1295.84	
1296.91	
1297.98	
1299.05	
1300.12	
1301.19	
1302.26	
1303.33	
1304.4	
1305.47	
1306.54	
1307.61	
1308.68	
1309.75	
1310.82	
1311.89	
1312.95	
1314.02	
1315.09	
1316.16	
1317.22	
1318.29	
1319.35	
1320.42	
1321.49	
1322.55	
1323.62	
1324.68	
1325.75	
1326.81	
1327.88	
1328.94	
1330.01	
1331.07	
1332.13	
1333.2	
1334.26	
1335.32	
1336.39	
1337.45	
1338.51	
1339.57	
1340.63	
1341.69	
1342.76	
1343.82	
1344.88	
1345.94	
1347	
1348.06	
1349.12	
1350.18	
1351.24	
1352.3	
1353.36	
1354.42	
1355.47	
1356.53	
1357.59	
1358.65	
1359.71	
1360.76	
1361.82	
1362.88	
1363.93	
1364.99	
1366.05	
1367.1	
1368.16	
1369.21	
1370.27	
1371.32	
1372.38	
1373.43	
1374.49	
1375.54	
1376.6	
1377.65	
1378.7	
1379.76	
1380.81	
1381.86	
1382.92	
1383.97	
1385.02	
1386.07	
1387.12	
1388.17	
1389.23	
1390.28	
1391.33	
1392.38	
1393.43	
1394.48	
1395.53	
1396.58	
1397.63	
1398.68	
1399.73	
1400.78	
1401.82	
1402.87	
1403.92	
1404.97	
1406.02	
1407.06	
1408.11	
1409.16	
1410.2	
1411.25	
1412.3	
1413.34	
1414.39	
1415.43	
1416.48	
1417.53	
1418.57	
1419.62	
1420.66	
1421.7	
1422.75	
1423.79	
1424.84	
1425.88	
1426.92	
1427.97	
1429.01	
1430.05	
1431.09	
1432.14	
1433.18	
1434.22	
1435.26	
1436.3	
1437.34	
1438.38	
1439.42	
1440.46	
1441.5	
1442.54	
1443.58	
1444.62	
1445.66	
1446.7	
1447.74	
1448.78	
1449.82	
1450.86	
1451.89	
1452.93	
1453.97	
1455.01	
1456.04	
1457.08	
1458.12	
1459.15	
1460.19	
1461.23	
1462.26	
1463.3	
1464.33	
1465.37	
1466.4	
1467.44	
1468.47	
1469.51	
1470.54	
1471.57	
1472.61	
1473.64	
1474.67	
1475.71	
1476.74	
1477.77	
1478.81	
1479.84	
1480.87	
1481.9	
1482.93	
1483.96	
1484.99	
1486.03	
1487.06	
1488.09	
1489.12	
1490.15	
1491.18	
1492.21	
1493.24	
1494.26	
1495.29	
1496.32	
1497.35	
1498.38	
1499.41	
1500.44	
1501.46	
1502.49	
1503.52	
1504.54	
1505.57	
1506.6	
1507.62	
1508.65	
1509.68	
1510.7	
1511.73	
1512.75	
1513.78	
1514.8	
1515.83	
1516.85	
1517.88	
1518.9	
1519.92	
1520.95	
1521.97	
1522.99	
1524.02	
1525.04	
1526.06	
1527.09	
1528.11	
1529.13	
1530.15	
1531.17	
1532.19	
1533.22	
1534.24	
1535.26	
1536.28	
1537.3	
1538.32	
1539.34	
1540.36	
1541.38	
1542.4	
1543.41	
1544.43	
1545.45	
1546.47	
1547.49	
1548.51	
1549.52	
1550.54	
1551.56	
1552.58	
1553.59	
1554.61	
1555.63	
1556.64	
1557.66	
1558.68	
1559.69	
1560.71	
1561.72	
1562.74	
1563.75	
1564.77	
1565.78	
1566.8	
1567.81	
1568.82	
1569.84	
1570.85	
1571.86	
1572.88	
1573.89	
1574.9	
1575.91	
1576.93	
1577.94	
1578.95	
1579.96	
1580.97	
1581.98	
1583	
1584.01	
1585.02	
1586.03	
1587.04	
1588.05	
1589.06	
1590.07	
1591.08	
1592.09	
1593.09	
1594.1	
1595.11	
1596.12	
1597.13	
1598.14	
1599.14	
1600.15	
1601.16	
1602.17	
1603.17	
1604.18	
1605.19	
1606.19	
1607.2	
1608.21	
1609.21	
1610.22	
1611.22	
1612.23	
1613.23	
1614.24	
1615.24	
1616.25	
1617.25	
1618.25	
1619.26	
1620.26	
1621.26	
1622.27	
1623.27	
1624.27	
1625.28	
1626.28	
1627.28	
1628.28	
1629.28	
1630.29	
1631.29	
1632.29	
1633.29	
1634.29	
1635.29	
1636.29	
1637.29	
1638.29	
1639.29	
1640.29	
1641.29	
1642.29	
1643.29	
1644.29	
1645.29	
1646.28	
1647.28	
1648.28	
1649.28	
1650.28	
1651.27	
1652.27	
1653.27	
1654.26	
1655.26	
1656.26	
1657.25	
1658.25	
1659.25	
1660.24	
1661.24	
1662.23	
1663.23	
1664.22	
1665.22	
1666.21	
1667.21	
1668.2	
1669.19	
1670.19	
1671.18	
1672.17	
1673.17	
1674.16	
1675.15	
1676.14	
1677.14	
1678.13	
1679.12	
1680.11	
1681.1	
1682.1	
1683.09	
1684.08	
1685.07	
1686.06	
1687.05	
1688.04	
1689.03	
1690.02	
1691.01	
1692	
1692.99	
1693.98	
1694.97	
1695.96	
1696.94	
1697.93	
1698.92	
1699.91	
1700.9	
1701.88	
1702.87	
1703.86	
1704.84	
1705.83	
1706.82	
1707.8	
1708.79	
1709.78	
1710.76	
1711.75	
1712.73	
1713.72	
1714.7	
1715.69	
1716.67	
1717.66	
1718.64	
1719.63	
1720.61	
1721.59	
1722.58	
1723.56	
1724.54	
1725.53	
1726.51	
1727.49	
1728.48	
1729.46	
1730.44	
1731.42	
1732.4	
1733.38	
1734.37	
1735.35	
1736.33	
1737.31	
1738.29	
1739.27	
1740.25	
1741.23	
1742.21	
1743.19	
1744.17	
1745.15	
1746.13	
1747.11	
1748.08	
1749.06	
1750.04	
1751.02	
1752	
1752.98	
1753.95	
1754.93	
1755.91	
1756.88	
1757.86	
1758.84	
1759.81	
1760.79	
1761.77	
1762.74	
1763.72	
1764.69	
1765.67	
1766.64	
1767.62	
1768.59	
1769.57	
1770.54	
1771.52	
1772.49	
1773.47	
1774.44	
1775.41	
1776.39	
1777.36	
1778.33	
1779.3	
1780.28	
1781.25	
1782.22	
1783.19	
1784.17	
1785.14	
1786.11	
1787.08	
1788.05	
1789.02	
1789.99	
1790.96	
1791.93	
1792.9	
1793.87	
1794.84	
1795.81	
1796.78	
1797.75	
1798.72	
1799.69	
1800.66	
1801.63	
1802.6	
1803.56	
1804.53	
1805.5	
1806.47	
1807.44	
1808.4	
1809.37	
1810.34	
